parameters: 
starting potential, V: -0.5
end potential, V: 0.3
step potential, V: 0.002
frequency, Hz: 25
amplitude, V: 0.02
potential/V SWV_Current/A Ox_Current/A
-0.5 -1.66753e-09 1.38118e-09
-0.498 -1.60174e-09 1.32669e-09
-0.496 -1.53854e-09 1.27434e-09
-0.494 -1.47783e-09 1.22406e-09
-0.492 -1.41952e-09 1.17577e-09
-0.49 -1.36351e-09 1.12938e-09
-0.488 -1.30971e-09 1.08483e-09
-0.486 -1.25803e-09 1.04203e-09
-0.484 -1.20839e-09 1.00092e-09
-0.482 -1.16071e-09 9.61429e-10
-0.48 -1.11491e-09 9.235e-10
-0.478 -1.07092e-09 8.87067e-10
-0.476 -1.02866e-09 8.52073e-10
-0.474 -9.88072e-10 8.1846e-10
-0.472 -9.49096e-10 7.8616e-10
-0.47 -9.11632e-10 7.55161e-10
-0.468 -8.75658e-10 7.25373e-10
-0.466 -8.41103e-10 6.96761e-10
-0.464 -8.07911e-10 6.69278e-10
-0.462 -7.76028e-10 6.4288e-10
-0.46 -7.45402e-10 6.17524e-10
-0.458 -7.15984e-10 5.9317e-10
-0.456 -6.87726e-10 5.69777e-10
-0.454 -6.60582e-10 5.47308e-10
-0.452 -6.34508e-10 5.25726e-10
-0.45 -6.09461e-10 5.04997e-10
-0.448 -5.85402e-10 4.85086e-10
-0.446 -5.62291e-10 4.65962e-10
-0.444 -5.40075e-10 4.47594e-10
-0.442 -5.18765e-10 4.29952e-10
-0.44 -4.98279e-10 4.13007e-10
-0.438 -4.78599e-10 3.96732e-10
-0.436 -4.59695e-10 3.81101e-10
-0.434 -4.41534e-10 3.66088e-10
-0.432 -4.24088e-10 3.51669e-10
-0.43 -4.07328e-10 3.37821e-10
-0.428 -3.91226e-10 3.24522e-10
-0.426 -3.75758e-10 3.11749e-10
-0.424 -3.60897e-10 2.99483e-10
-0.422 -3.46619e-10 2.87703e-10
-0.42 -3.32901e-10 2.76392e-10
-0.418 -3.19721e-10 2.65529e-10
-0.416 -3.07057e-10 2.55099e-10
-0.414 -2.94888e-10 2.45083e-10
-0.412 -2.83195e-10 2.35467e-10
-0.41 -2.71959e-10 2.26234e-10
-0.408 -2.6116e-10 2.17371e-10
-0.406 -2.50782e-10 2.08861e-10
-0.404 -2.40807e-10 2.00693e-10
-0.402 -2.31219e-10 1.92854e-10
-0.4 -2.22001e-10 1.85329e-10
-0.398 -2.1314e-10 1.78109e-10
-0.396 -2.0462e-10 1.71181e-10
-0.394 -1.96426e-10 1.64534e-10
-0.392 -1.88546e-10 1.58158e-10
-0.39 -1.80967e-10 1.52043e-10
-0.388 -1.73674e-10 1.46179e-10
-0.386 -1.66654e-10 1.40558e-10
-0.384 -1.59901e-10 1.35177e-10
-0.382 -1.53399e-10 1.30013e-10
-0.38 -1.47138e-10 1.25067e-10
-0.378 -1.41105e-10 1.20332e-10
-0.376 -1.35293e-10 1.158e-10
-0.374 -1.29689e-10 1.11465e-10
-0.372 -1.24284e-10 1.0732e-10
-0.37 -1.19069e-10 1.03359e-10
-0.368 -1.14034e-10 9.95768e-11
-0.366 -1.09169e-10 9.59683e-11
-0.364 -1.04467e-10 9.25285e-11
-0.362 -9.99175e-11 8.92528e-11
-0.36 -9.55123e-11 8.6137e-11
-0.358 -9.12427e-11 8.31775e-11
-0.356 -8.71003e-11 8.03708e-11
-0.354 -8.30767e-11 7.77138e-11
-0.352 -7.91635e-11 7.52038e-11
-0.35 -7.53524e-11 7.28385e-11
-0.348 -7.1635e-11 7.0616e-11
-0.346 -6.8003e-11 6.85347e-11
-0.344 -6.4448e-11 6.65934e-11
-0.342 -6.09614e-11 6.47914e-11
-0.34 -5.75347e-11 6.31283e-11
-0.338 -5.41592e-11 6.16042e-11
-0.336 -5.08258e-11 6.02198e-11
-0.334 -4.75254e-11 5.8976e-11
-0.332 -4.42487e-11 5.78743e-11
-0.33 -4.09859e-11 5.69169e-11
-0.328 -3.77269e-11 5.61064e-11
-0.326 -3.44613e-11 5.54459e-11
-0.324 -3.10895e-11 5.49393e-11
-0.322 -2.77818e-11 5.45174e-11
-0.32 -2.44297e-11 5.42741e-11
-0.318 -2.1022e-11 5.4209e-11
-0.316 -1.75462e-11 5.4325e-11
-0.314 -1.39887e-11 5.46272e-11
-0.312 -1.03352e-11 5.51223e-11
-0.31 -6.57018e-12 5.58186e-11
-0.308 -2.67699e-12 5.67256e-11
-0.306 1.36197e-12 5.78542e-11
-0.304 5.56557e-12 5.92165e-11
-0.302 9.95395e-12 6.0826e-11
-0.3 1.45487e-11 6.26975e-11
-0.298 1.93729e-11 6.48474e-11
-0.296 2.4509e-11 6.71292e-11
-0.294 2.98456e-11 6.96954e-11
-0.292 3.54291e-11 7.28249e-11
-0.29 4.14553e-11 7.63771e-11
-0.288 4.78478e-11 8.02839e-11
-0.286 5.46449e-11 8.45855e-11
-0.284 6.18524e-11 8.91142e-11
-0.282 6.95563e-11 9.41572e-11
-0.28 7.77974e-11 9.97342e-11
-0.278 8.66215e-11 1.05874e-10
-0.276 9.60792e-11 1.12614e-10
-0.274 1.06226e-10 1.19995e-10
-0.272 1.1712e-10 1.28064e-10
-0.27 1.28593e-10 1.36873e-10
-0.268 1.41534e-10 1.47163e-10
-0.266 1.55043e-10 1.57423e-10
-0.264 1.69611e-10 1.68684e-10
-0.262 1.85318e-10 1.80991e-10
-0.26 2.02256e-10 1.94406e-10
-0.258 2.20528e-10 2.09005e-10
-0.256 2.40244e-10 2.24875e-10
-0.254 2.61524e-10 2.42115e-10
-0.252 2.84499e-10 2.60832e-10
-0.25 3.09311e-10 2.81144e-10
-0.248 3.36113e-10 3.03179e-10
-0.246 3.6507e-10 3.27076e-10
-0.244 3.96363e-10 3.52985e-10
-0.242 4.30186e-10 3.81072e-10
-0.24 4.66748e-10 4.11512e-10
-0.238 5.06278e-10 4.44498e-10
-0.236 5.49021e-10 4.80238e-10
-0.234 5.95244e-10 5.18957e-10
-0.232 6.45234e-10 5.60898e-10
-0.23 6.99303e-10 6.06327e-10
-0.228 7.57789e-10 6.55528e-10
-0.226 8.21057e-10 7.08811e-10
-0.224 8.89501e-10 7.6651e-10
-0.222 9.63549e-10 8.28988e-10
-0.22 1.04366e-09 8.96637e-10
-0.218 1.13034e-09 9.69882e-10
-0.216 1.22413e-09 1.04918e-09
-0.214 1.32561e-09 1.13503e-09
-0.212 1.43542e-09 1.22797e-09
-0.21 1.55424e-09 1.32859e-09
-0.208 1.68282e-09 1.4375e-09
-0.206 1.82195e-09 1.5554e-09
-0.204 1.97251e-09 1.68302e-09
-0.202 2.13544e-09 1.82115e-09
-0.2 2.31175e-09 1.97067e-09
-0.198 2.50254e-09 2.13251e-09
-0.196 2.70899e-09 2.30767e-09
-0.194 2.93241e-09 2.49725e-09
-0.192 3.17417e-09 2.70243e-09
-0.19 3.43579e-09 2.92449e-09
-0.188 3.71889e-09 3.16482e-09
-0.186 4.02523e-09 3.4249e-09
-0.184 4.35671e-09 3.70636e-09
-0.182 4.71539e-09 4.01095e-09
-0.18 5.1035e-09 4.34056e-09
-0.178 5.52345e-09 4.69722e-09
-0.176 5.97782e-09 5.08316e-09
-0.174 6.46944e-09 5.50076e-09
-0.172 7.00133e-09 5.95261e-09
-0.17 7.57678e-09 6.44149e-09
-0.168 8.19934e-09 6.97041e-09
-0.166 8.87283e-09 7.54265e-09
-0.164 9.60139e-09 8.16171e-09
-0.162 1.03895e-08 8.83139e-09
-0.16 1.12419e-08 9.55581e-09
-0.158 1.21612e-08 1.03366e-08
-0.156 1.31584e-08 1.11841e-08
-0.154 1.42368e-08 1.21007e-08
-0.152 1.5403e-08 1.3092e-08
-0.15 1.6664e-08 1.41639e-08
-0.148 1.80275e-08 1.5323e-08
-0.146 1.95015e-08 1.65762e-08
-0.144 2.1095e-08 1.7931e-08
-0.142 2.28173e-08 1.93955e-08
-0.14 2.468e-08 2.09785e-08
-0.138 2.66915e-08 2.26892e-08
-0.136 2.88649e-08 2.45379e-08
-0.134 3.1213e-08 2.65352e-08
-0.132 3.37493e-08 2.8693e-08
-0.13 3.64885e-08 3.10236e-08
-0.128 3.94462e-08 3.35405e-08
-0.126 4.26393e-08 3.6258e-08
-0.124 4.60859e-08 3.91916e-08
-0.122 4.9805e-08 4.23577e-08
-0.12 5.38173e-08 4.5774e-08
-0.118 5.81447e-08 4.94593e-08
-0.116 6.28105e-08 5.34337e-08
-0.114 6.78398e-08 5.77185e-08
-0.112 7.32589e-08 6.23366e-08
-0.11 7.90959e-08 6.7312e-08
-0.108 8.53805e-08 7.26706e-08
-0.106 9.21441e-08 7.84393e-08
-0.104 9.942e-08 8.4647e-08
-0.102 1.07243e-07 9.13239e-08
-0.1 1.15649e-07 9.85018e-08
-0.098 1.24678e-07 1.06214e-07
-0.096 1.34369e-07 1.14496e-07
-0.094 1.44762e-07 1.23383e-07
-0.092 1.55649e-07 1.32914e-07
-0.09 1.67957e-07 1.43859e-07
-0.088 1.80388e-07 1.54575e-07
-0.086 1.94443e-07 1.66983e-07
-0.084 2.08953e-07 1.79143e-07
-0.082 2.24466e-07 1.92274e-07
-0.08 2.41017e-07 2.06372e-07
-0.078 2.58645e-07 2.2145e-07
-0.076 2.77393e-07 2.37535e-07
-0.074 2.973e-07 2.54658e-07
-0.072 3.18404e-07 2.7285e-07
-0.07 3.4074e-07 2.92144e-07
-0.068 3.6434e-07 3.12573e-07
-0.066 3.89229e-07 3.34163e-07
-0.064 4.15425e-07 3.56939e-07
-0.062 4.43461e-07 3.7955e-07
-0.06 4.7152e-07 4.04543e-07
-0.058 5.01753e-07 4.31415e-07
-0.056 5.3324e-07 4.59346e-07
-0.054 5.65961e-07 4.88385e-07
-0.052 5.99875e-07 5.18546e-07
-0.05 6.34922e-07 5.49816e-07
-0.048 6.71024e-07 5.8216e-07
-0.046 7.08081e-07 6.15529e-07
-0.044 7.45978e-07 6.49852e-07
-0.042 7.84577e-07 6.85048e-07
-0.04 8.23721e-07 7.21017e-07
-0.038 8.61822e-07 7.57645e-07
-0.036 9.03591e-07 7.98766e-07
-0.034 9.42999e-07 8.35123e-07
-0.032 9.82241e-07 8.72152e-07
-0.03 1.02103e-06 9.09515e-07
-0.028 1.05909e-06 9.4694e-07
-0.026 1.09615e-06 9.84187e-07
-0.024 1.13192e-06 1.02104e-06
-0.022 1.16612e-06 1.05727e-06
-0.02 1.19849e-06 1.0927e-06
-0.018 1.22876e-06 1.12711e-06
-0.016 1.25666e-06 1.16033e-06
-0.014 1.28196e-06 1.19216e-06
-0.012 1.30592e-06 1.21839e-06
-0.01 1.32309e-06 1.2464e-06
-0.008 1.33956e-06 1.27446e-06
-0.006 1.35254e-06 1.30007e-06
-0.004 1.36197e-06 1.3233e-06
-0.002 1.36777e-06 1.34417e-06
4.30211e-16 1.36991e-06 1.36266e-06
0.002 1.36838e-06 1.37877e-06
0.004 1.3632e-06 1.39247e-06
0.006 1.35443e-06 1.40378e-06
0.008 1.34215e-06 1.4127e-06
0.01 1.32648e-06 1.41925e-06
0.012 1.30757e-06 1.42349e-06
0.014 1.28561e-06 1.42547e-06
0.016 1.2608e-06 1.42527e-06
0.018 1.23336e-06 1.42295e-06
0.02 1.20354e-06 1.41864e-06
0.022 1.17159e-06 1.41241e-06
0.024 1.13777e-06 1.40441e-06
0.026 1.10236e-06 1.39473e-06
0.028 1.06562e-06 1.38351e-06
0.03 1.02783e-06 1.37088e-06
0.032 9.89246e-07 1.35696e-06
0.034 9.50125e-07 1.34189e-06
0.036 9.10709e-07 1.32581e-06
0.038 8.71226e-07 1.30883e-06
0.04 8.31889e-07 1.29108e-06
0.042 7.92891e-07 1.27269e-06
0.044 7.5441e-07 1.25376e-06
0.046 7.16603e-07 1.23442e-06
0.048 6.79609e-07 1.21476e-06
0.05 6.43547e-07 1.19488e-06
0.052 6.08519e-07 1.17487e-06
0.054 5.74608e-07 1.15482e-06
0.056 5.41879e-07 1.13479e-06
0.058 5.10385e-07 1.11486e-06
0.06 4.80161e-07 1.09509e-06
0.062 4.5123e-07 1.07553e-06
0.064 4.23602e-07 1.05623e-06
0.066 3.97279e-07 1.03723e-06
0.068 3.72252e-07 1.01858e-06
0.07 3.48502e-07 1.00029e-06
0.072 3.26006e-07 9.82389e-07
0.074 3.04734e-07 9.64904e-07
0.076 2.84652e-07 9.47847e-07
0.078 2.65721e-07 9.31231e-07
0.08 2.47901e-07 9.15062e-07
0.082 2.31146e-07 8.99347e-07
0.084 2.15413e-07 8.84086e-07
0.086 2.00656e-07 8.69281e-07
0.088 1.86829e-07 8.54927e-07
0.09 1.73885e-07 8.41021e-07
0.092 1.61779e-07 8.27556e-07
0.094 1.50466e-07 8.14526e-07
0.096 1.39903e-07 8.01921e-07
0.098 1.30046e-07 7.89731e-07
0.1 1.20855e-07 7.77947e-07
0.102 1.12289e-07 7.66557e-07
0.104 1.04311e-07 7.55551e-07
0.106 9.68846e-08 7.44916e-07
0.108 8.99744e-08 7.3464e-07
0.11 8.35477e-08 7.24713e-07
0.112 7.7573e-08 7.1512e-07
0.114 7.20206e-08 7.05852e-07
0.116 6.68624e-08 6.96895e-07
0.118 6.2072e-08 6.88239e-07
0.12 5.76244e-08 6.79871e-07
0.122 5.34961e-08 6.7178e-07
0.124 4.96651e-08 6.63956e-07
0.126 4.61109e-08 6.56388e-07
0.128 4.2814e-08 6.49066e-07
0.13 3.97563e-08 6.41979e-07
0.132 3.6921e-08 6.35118e-07
0.134 3.42923e-08 6.28473e-07
0.136 3.18553e-08 6.22036e-07
0.138 2.95964e-08 6.15798e-07
0.14 2.75027e-08 6.09751e-07
0.142 2.55623e-08 6.03886e-07
0.144 2.3764e-08 5.98195e-07
0.146 2.20977e-08 5.92673e-07
0.148 2.05536e-08 5.87311e-07
0.15 1.91228e-08 5.82103e-07
0.152 1.77971e-08 5.77042e-07
0.154 1.65687e-08 5.72123e-07
0.156 1.54304e-08 5.67339e-07
0.158 1.43757e-08 5.62684e-07
0.16 1.33984e-08 5.58155e-07
0.162 1.24928e-08 5.53744e-07
0.164 1.16535e-08 5.49448e-07
0.166 1.08758e-08 5.45263e-07
0.168 1.01549e-08 5.41182e-07
0.17 9.48677e-09 5.37203e-07
0.172 8.86742e-09 5.33321e-07
0.174 8.29325e-09 5.29532e-07
0.176 7.76092e-09 5.25834e-07
0.178 7.2673e-09 5.22221e-07
0.18 6.80954e-09 5.18692e-07
0.182 6.38497e-09 5.15242e-07
0.184 5.99112e-09 5.11869e-07
0.186 5.62572e-09 5.08571e-07
0.188 5.28664e-09 5.05343e-07
0.19 4.97194e-09 5.02184e-07
0.192 4.67981e-09 4.99091e-07
0.194 4.40858e-09 4.96062e-07
0.196 4.15669e-09 4.93095e-07
0.198 3.92271e-09 4.90187e-07
0.2 3.70531e-09 4.87336e-07
0.202 3.50326e-09 4.84541e-07
0.204 3.31544e-09 4.81799e-07
0.206 3.14079e-09 4.79108e-07
0.208 2.97833e-09 4.76468e-07
0.21 2.82716e-09 4.73876e-07
0.212 2.68646e-09 4.7133e-07
0.214 2.55546e-09 4.6883e-07
0.216 2.43343e-09 4.66374e-07
0.218 2.31972e-09 4.6396e-07
0.22 2.21372e-09 4.61587e-07
0.222 2.11486e-09 4.59255e-07
0.224 2.02263e-09 4.56961e-07
0.226 1.93654e-09 4.54704e-07
0.228 1.85613e-09 4.52484e-07
0.23 1.78101e-09 4.50299e-07
0.232 1.71077e-09 4.48149e-07
0.234 1.64508e-09 4.46032e-07
0.236 1.58359e-09 4.43947e-07
0.238 1.52602e-09 4.41894e-07
0.24 1.47206e-09 4.39872e-07
0.242 1.42148e-09 4.3788e-07
0.244 1.37401e-09 4.35916e-07
0.246 1.32945e-09 4.33981e-07
0.248 1.28758e-09 4.32074e-07
0.25 1.24822e-09 4.30193e-07
0.252 1.21118e-09 4.28339e-07
0.254 1.1763e-09 4.2651e-07
0.256 1.14343e-09 4.24706e-07
0.258 1.11244e-09 4.22926e-07
0.26 1.08318e-09 4.2117e-07
0.262 1.05554e-09 4.19437e-07
0.264 1.02941e-09 4.17727e-07
0.266 1.00468e-09 4.16038e-07
0.268 9.81255e-10 4.14371e-07
0.27 9.5905e-10 4.12726e-07
0.272 9.37981e-10 4.11101e-07
0.274 9.1797e-10 4.09495e-07
0.276 8.98948e-10 4.0791e-07
0.278 8.80848e-10 4.06344e-07
0.28 8.63609e-10 4.04796e-07
0.282 8.47175e-10 4.03268e-07
0.284 8.31493e-10 4.01757e-07
0.286 8.16514e-10 4.00263e-07
0.288 8.02194e-10 3.98787e-07
0.29 7.8849e-10 3.97328e-07
0.292 7.75364e-10 3.95886e-07
0.294 7.62778e-10 3.94459e-07
0.296 7.507e-10 3.93049e-07
0.298 7.39099e-10 3.91654e-07
0.3 7.27944e-10 3.90275e-07
